time (s),motor position (nm),sensor position (nm)
0.081019764,0,0
0.181068853,401,-234
0.281291897,-741,265
0.381272763,-856,-1931
0.481131736,-668,-1151
0.581136746,-466,-599
0.681217754,-360,1348
0.781241587,-282,1722
0.881182854,341,806
0.981177708,-182,-837
1.081313176,21,288
1.181290584,-284,-133
1.281326413,-286,665
1.381271848,-2,1716
1.4812531039999999,-533,-890
1.581321494,-367,1124
1.681196897,25,708
1.781157235,-672,-131
1.881291546,-471,863
1.981399792,-411,640
2.081119257,16,-660
3.202493005,222,2816
3.207605731,589,1797
3.212556269,21327,302
3.217633195,63773,519
3.22265513,115149,-8
3.227417522,168238,809
3.232647169,220718,-944
3.237530922,272888,-137
3.242456337,324127,170
3.247553929,374979,116
3.252453422,425503,-53
3.2576244389999998,476470,1858
3.262531649,527459,1704
3.26747561,578760,2104
3.272984357,629280,1608
3.277566122,678841,1678
3.282534398,730243,883
3.287450473,780120,851
3.292640506,830600,669
3.297646703,880468,-374
3.302533716,931461,31
3.307573079,981326,363
3.312443209,1030976,-24
3.31752027,1081214,-738
3.322639624,1131277,812
3.327357288,1180803,587
3.332499812,1231452,332
3.337462642,1281213,96
3.342530109,1331297,516
3.347616226,1381097,751
3.35266434,1431754,1637
3.35733188,1480822,1574
3.36256627,1530639,2093
3.367466198,1581135,1192
3.37267161,1631246,724
3.377411533,1680911,1654
3.382597659,1729779,990
3.3876352450000002,1780105,1781
3.392838027,1830267,807
3.3976412529999998,1880402,1523
3.402480774,1929189,1003
3.407351373,1978708,841
3.412406057,2026985,-413
3.417540044,2046899,248
3.422495299,1893588,-234
3.427490121,2072099,75
3.432536154,2189770,-1395
3.437547897,2264100,408
3.442784449,2321268,1252
3.447626168,2373415,1062
3.452636315,2424916,911
3.457429718,2475198,1834
3.46245239,2525193,2360
3.467405213,2577356,1576
3.472461062,2628302,131
3.477548244,2679555,740
3.482423396,2728188,1988
3.487735085,2779020,756
3.492726788,2829670,454
3.49768021,2879955,-856
3.502451488,2929059,-272
3.507678559,2979550,-418
3.512454285,3030496,652
3.51737068,3080216,880
3.5224483859999998,3130292,-1310
3.527350346,3179898,714
3.532675329,3231215,-142
3.537625761,3280076,-382
3.542639787,3330408,-430
3.547363175,3380350,-648
3.552470132,3430382,-1162
3.557444159,3480258,-368
3.56253333,3530342,1247
3.5676418,3580257,3019
3.572616501,3630916,325
3.5776748229999997,3679766,2385
3.582717997,3730440,5281
3.587541837,3779962,2404
3.5927287850000003,3829143,2932
3.597561934,3878942,2595
3.602581624,3927147,3318
3.607592206,3962301,-130
3.612534262,3872281,107
3.617515129,3926841,1056
3.622596132,4072218,-206
3.627512274,4157296,107
3.632467445,4219395,1249
3.63748494,4272876,-1101
3.642590316,4325342,236
3.647457971,4375200,710
3.65262816,4426710,1064
3.657476988,4477344,859
3.6626161120000003,4527889,1412
3.6675322599999998,4578820,2224
3.672616295,4629372,159
3.677698967,4679098,1473
3.6824542,4729143,1298
3.687503566,4779427,1387
3.692636163,4830302,401
3.697516286,4880463,20
3.70242468,4929766,311
3.707602824,4980772,837
3.712389474,5030957,-89
3.71771968,5081621,1724
3.722428658,5130400,133
3.727519318,5180792,-892
3.732694456,5230886,510
3.737416444,5280243,899
3.7423823560000002,5330360,577
3.747476788,5380607,1558
3.752576322,5430833,1765
3.757512721,5480911,765
3.762657968,5530722,1177
3.767420963,5579863,1102
3.772410851,5629779,1766
3.777515735,5680189,674
3.782673069,5730036,2710
3.787341775,5778787,1580
3.792665711,5828766,-1046
3.797556244,5877732,-1116
3.802665979,5914257,1858
3.807435457,5860990,1969
3.812637612,5871147,-759
3.817548033,6018148,342
3.82253622,6106372,1019
3.827630871,6168811,-319
3.832706323,6223092,-288
3.837492591,6274994,942
3.842690996,6325649,-265
3.847439082,6375746,702
3.852698759,6426726,522
3.85738086,6476964,1789
3.862578171,6527601,481
3.867472185,6578670,954
3.872643252,6629277,1798
3.877499094,6678880,1661
3.882665104,6729461,1435
3.887606188,6780401,-205
3.892468642,6829542,473
3.897525435,6880208,621
3.902497679,6930274,1352
3.907484169,6979965,1089
3.9124940280000002,7030154,464
3.917568855,7079934,-1905
3.922703852,7130703,-93
3.927447551,7180567,532
3.932669604,7230394,581
3.937466744,7279891,779
3.942506015,7330223,455
3.9473539730000002,7379329,1654
3.952649525,7429246,2624
3.957547922,7480057,1812
3.962418493,7529227,1521
3.9674646190000002,7579026,1518
3.972632003,7629969,891
3.977483613,7678981,1561
3.98272464,7729517,930
3.9875286340000002,7778584,44
3.992695195,7826209,-443
3.997428278,7847301,973
4.002460127,7704922,-287
4.007640416,7869997,-500
4.012495618,7987450,-1955
4.017659926,8061870,-365
4.022773704,8120768,370
4.02767596,8172991,-29
4.032595168,8225079,577
4.037479546,8274492,106
4.042803125,8326633,499
4.047609684,8377250,403
4.052373309,8427850,806
4.05756747,8477966,2121
4.062580082,8528869,2391
4.067532977,8579068,2018
4.072720045,8628819,1505
4.077560898,8679540,-471
4.082406724,8729414,44
4.087695814,8780173,-775
4.09245695,8829977,-193
4.097651518,8879851,476
4.102543846,8930725,223
4.10770559,8979836,82
4.112418338,9030099,-328
4.117614172,9080005,-970
4.122519814,9129941,-182
4.127350012,9179934,774
4.132458512,9229747,545
4.137448216,9279905,1054
4.142562593,9330470,1048
4.147518291,9380288,1860
4.152600895,9429291,1086
4.157387863,9479996,1710
4.162634699,9529918,1347
4.167426516,9579152,1713
4.172401374,9628603,684
4.177709232,9679004,461
4.182590207,9726854,1058
4.187592201,9759561,329
4.192659871,9652857,-117
4.197698772,9734666,239
4.202512062,9874578,675
4.207358995,9956813,-705
4.212676155,10018982,-723
4.217659392,10072579,-999
4.222600904,10124789,913
4.22745937,10175587,172
4.23255521,10226328,215
4.237491131,10276422,1534
4.242469727,10327853,1150
4.24765896,10378274,1227
4.252603727,10428484,393
4.257541756,10479484,104
4.262491182,10529021,-693
4.267600571,10579062,1904
4.272498685,10629732,542
4.277447896,10678837,1067
4.282450416,10729967,623
4.287571444,10780791,402
4.292544299,10830417,919
4.29744725,10879766,-470
4.302460577,10930372,-989
4.307552901,10981131,1313
4.312465052,11030425,859
4.317415158,11080835,655
4.322391382,11129917,2750
4.327634611,11179762,2395
4.332467169,11229984,1679
4.337642088,11280539,538
4.342616873,11329893,-132
4.347482398,11379485,989
4.352645253,11429969,-212
4.357560805,11479781,-579
4.362490081,11528649,1828
4.367504372,11578713,919
4.3724299779999996,11627544,-591
4.377432999,11671919,1151
4.382640834,11684088,1234
4.38745595,11585264,677
4.392700041,11750056,500
4.397465375,11848770,2385
4.402529771,11915958,2100
4.407433545,11971866,556
4.412625445,12023448,1304
4.417543333,12075032,1225
4.422357556,12124871,931
4.427428427,12176834,1277
4.432606224,12226627,900
4.437700928,12278214,289
4.442513502,12328945,178
4.447501272,12378492,1357
4.452464624,12428243,502
4.457696516,12478131,-415
4.462436764,12529864,1220
4.4675692399999996,12579210,577
4.472570331,12629396,770
4.477505138,12680248,576
4.482547933,12730644,2684
4.487585712,12780050,1726
4.492988698,12829784,2069
4.497446848,12880708,1872
4.502784452,12930123,3040
4.50743417,12980165,3208
4.512725341,13030612,2471
4.517364944,13079384,1679
4.522459813,13130191,1155
4.527738811,13180664,-154
4.532699144,13230001,-1080
4.53743921,13280222,-733
4.542694153,13329661,-2073
4.547543493,13378910,-622
4.552617767,13429887,-877
4.557468665,13479614,-1651
4.562438183,13528946,-205
4.567741107,13576353,94
4.572551252,13601097,932
4.577726704,13452841,645
4.582482526,13610894,852
4.587338198,13734637,2130
4.592675274,13812343,1588
4.597456214,13870690,2508
4.602448574,13923245,3594
4.607530308,13975728,2456
4.612459449,14025912,2742
4.617444636,14076982,314
4.62260868,14126945,522
4.627631185,14177951,-1768
4.6327537,14228942,-1354
4.637533333,14278991,414
4.6424748099999995,14328769,-540
4.647740016,14379787,-1261
4.6524941890000004,14429661,-1532
4.657478565,14479807,-3015
4.662595559,14529648,-2018
4.667593025,14580943,-1382
4.672611923,14630670,-53
4.677495344,14680055,787
4.682483889,14730336,1678
4.687675846,14780602,3084
4.692646026,14831460,3026
4.697643048,14880635,2519
4.702572017,14932030,3061
4.707617224,14980755,-493
4.712617441,15030193,-414
4.717444802,15080217,352
4.722375317,15130509,-1580
4.727663132,15180389,440
4.732470767,15230480,-1206
4.737614301,15279341,-512
4.742656255,15329874,-2184
4.747479728,15379077,-3683
4.752590861,15428975,-1173
4.757443269,15478684,-938
4.762389483,15526156,2690
4.767484087,15542436,2069
4.772669232,15409741,1048
4.777444954,15582578,581
4.7824256,15692595,3720
4.787839535,15765223,76
4.792708759,15821744,4413
4.797555485,15874021,2985
4.802393845,15925324,1952
4.807626267,15975160,5503
4.812513967,16025644,2179
4.817659731,16077652,-1080
4.822682034,16128222,1727
4.827484917,16178731,902
4.832668471,16228272,-1655
4.837557728,16278510,-1767
4.84258043,16329162,-2184
4.84745854,16380003,-1558
4.852643314,16429987,-1367
4.857433828,16479322,-1889
4.862517723,16529991,108
4.867724029,16579440,1524
4.872442364,16630255,302
4.877561625,16680089,852
4.882703189,16730235,2034
4.887461257,16780262,840
4.892495948,16829409,1530
4.897687499,16880809,1217
4.902501116,16930272,1189
4.907420933,16980076,748
4.912486488,17029281,-676
4.917493855,17079083,-516
4.922677556,17129660,-441
4.927641607,17179671,-1329
4.932739367,17230271,-1328
4.937410582,17278821,-2163
4.942637194,17329105,-1420
4.947675636,17377952,-1587
4.9527810389999996,17426789,-1356
4.957615247,17454546,-940
4.962391367,17309623,-1537
4.967605251,17450035,-88
4.972557901,17580183,-576
4.977646294,17659403,324
4.982630663,17719559,-52
4.987607174,17772570,1897
4.992418746,17824941,2075
4.997700141,17874952,1861
5.002565882,17926435,767
5.007583885,17976784,1543
5.012423332,18027410,-1485
5.017568777,18078013,1301
5.022604958,18128008,-418
5.027578305,18179788,-2128
5.032768375,18229095,-1789
5.037680763,18279394,-3
5.042719477,18329664,-1843
5.047636452,18380258,-86
5.052400868,18429351,736
5.057564669,18479848,-1108
5.062422237,18529579,1189
5.067682926,18580080,483
5.072696369,18631307,12
5.077567947,18679203,1159
5.082445668,18730281,-47
5.087312591,18779385,1688
5.092537122,18830193,1524
5.097685952,18880145,303
5.102675295,18929842,932
5.107417988,18980037,808
5.112685002,19030117,-98
5.117497128,19079778,197
5.122439979,19128940,-457
5.127479709,19179546,11
5.133361093,19229374,439
5.1374445380000004,19278144,199
5.142432459,19327060,708
5.14750929,19361124,753
5.152578118,19259700,1032
5.157469378,19329610,2101
5.162611124,19472442,1298
5.167457016,19557381,1359
5.172691037,19619295,-200
5.177569088,19672492,470
5.182493597,19724783,1043
5.187625796,19775327,418
5.192494687,19826675,379
5.197653093,19876887,722
5.202500403,19926567,484
5.207621663,19978741,319
5.212453666,20029194,194
5.217360273,20079486,-740
5.222734369,20129014,462
5.227545482,20179711,1001
5.232447347,20230275,1627
5.237350529,20279959,-46
5.2426088889999996,20329969,913
5.247591067,20380715,1330
5.252980167,20430547,1141
5.257586637,20480212,1490
5.262588292,20530636,253
5.267689833,20580981,533
5.272747316,20630717,703
5.27758234,20680589,767
5.28256413,20730518,-38
5.287493317,20780294,64
5.292705275,20830064,573
5.297621961,20880646,875
5.30235346,20929562,144
5.307590024,20980568,1309
5.312547034,21029700,61
5.317633793,21079717,162
5.322664441,21129628,572
5.327633038,21179286,-12
5.332628725,21227411,246
5.337435394,21273613,-134
5.342747008,21285704,1158
5.347719972,21178277,829
5.352413995,21344248,1690
5.357595815,21447682,2755
5.362386375,21515502,2317
5.367653624,21572254,1441
5.372607852,21623622,917
5.377471987,21675143,-212
5.382428477,21725397,-386
5.387584564,21777534,1253
5.3923915319999995,21827373,951
5.397581628,21877815,-208
5.402595132,21928571,600
5.407464336,21978064,104
5.412520568,22028927,-639
5.417757963,22080005,121
5.422678857,22129999,981
5.427622339,22180004,530
5.432482964,22228904,1016
5.437437761,22279583,896
5.442478738,22329980,321
5.447524439,22380531,267
5.452625716,22429454,674
5.457634627,22480538,1542
5.4624218970000005,22529757,590
5.467490591,22580911,393
5.47241433,22629939,840
5.477587295,22680133,478
5.482484068,22729155,-538
5.48760121,22780787,578
5.493020202,22829203,-80
5.497710062,22880833,-418
5.50256729,22929915,-197
5.50748043,22979842,-403
5.512768747,23029317,383
5.517491242,23079479,-744
5.522478898,23128410,403
5.5275268870000005,23175669,-774
5.532709644,23193224,1210
5.537660055,23057412,340
5.542400757,23228549,604
5.5475379369999995,23342130,705
5.552669,23412581,557
5.557411469,23470981,1082
5.562564669,23523477,177
5.567666398,23575744,147
5.572488666,23625425,743
5.577432813,23676437,-728
5.582503478,23727895,-1189
5.587506195,23778650,-345
5.592593185,23828418,738
5.597624065,23878681,-689
5.602649806,23929522,-609
5.607575255,23979908,-22
5.61249215,24029359,-821
5.617494323,24079357,-1055
5.622491647,24131028,-85
5.627608005,24180478,-457
5.632686295,24231046,581
5.637446293,24280547,-627
5.642551939,24330425,-643
5.647708808,24381766,-392
5.652666323,24430887,678
5.657577085,24479951,-50
5.662426991,24530446,1799
5.667579821,24580759,815
5.672746635,24630104,1051
5.677524063,24680760,-142
5.682437897,24730498,-568
5.6876948689999995,24780533,-564
5.692423172,24830035,1515
5.6976622,24879976,926
5.702477307,24930514,5553
5.707590088,24979568,-3088
5.71269097,25029447,11712
5.717453624,25077093,9893
5.72251078,25118122,-1354
5.727613906,25113316,2909
5.732440794,25055243,-1991
5.737657996,25210754,821
5.742603431,25304512,817
5.747773657,25368383,1937
5.752455647,25423001,-109
5.757574701,25474840,13969
5.762670096,25525558,9909
5.767494198,25576779,5513
5.772558854,25627900,20879
5.777654181,25677573,1456
5.782676339,25729500,19889
5.787480527,25778910,-22222
5.792603766,25829673,9302
5.797715746,25879090,531
5.802554593,25929257,2974
5.80747749,25979697,5151
5.812537132,26030179,12354
5.817432109,26080353,626
5.822448949,26130263,577
5.827561607,26179763,-816
5.832536452,26230373,-1439
5.837576401,26280236,5971
5.84261079,26330466,2977
5.847534624,26380684,2876
5.85284336,26429815,3843
5.857714941,26480965,2023
5.862531114,26530720,-1209
5.867618341,26580497,2996
5.872447271,26630304,4829
5.877682697,26680000,2077
5.882403514,26729319,4557
5.8875523770000004,26780609,4722
5.892437736,26829487,3190
5.897556995,26879649,5481
5.902683946,26929020,4747
5.907609554,26977703,2761
5.9125477,27025757,3228
5.917679273,27049182,4043
5.92246072,26894199,3992
5.927381046,27064394,3499
5.9326481300000005,27186864,2477
5.937434809,27262104,2851
5.942421223,27320164,2552
5.947523996,27373477,1410
5.952480072,27425675,4945
5.95768082,27475281,5490
5.962636216,27526993,2977
5.967529634,27578195,1813
5.972409593,27628014,3754
5.977462107,27678887,3535
5.982555559,27727821,3950
5.987472894,27778316,4735
5.99270649,27828431,4950
5.9976618120000005,27880058,4351
6.002508028,27929737,2773
6.007457004,27978969,3849
6.012468892,28030544,3923
6.017584724,28079252,2515
6.022499294,28130010,1432
6.027431266,28180172,2931
6.032752896,28230465,2697
6.037654954,28279825,3264
6.042499349,28330454,2987
6.04749333,28380361,5212
6.052388366,28429558,3149
6.057475675,28479598,3249
6.062533446,28530329,3848
6.067413616,28579704,4008
6.072593302,28630073,4696
6.077731958,28680373,4109
6.082629252,28729352,4418
6.087639841,28779041,4152
6.09266683,28828667,4842
6.0975668259999996,28878272,3876
6.1026104310000004,28926203,3403
6.107619363,28948634,3249
6.112499042,28793527,4448
6.117395016,28964541,3438
6.122708562,29088536,1984
6.127636892,29162668,3797
6.132422269,29220585,4245
6.137649883,29273388,5185
6.142433379,29325267,3214
6.147463863,29375707,5677
6.152705914,29426298,5361
6.157370131,29477356,4097
6.162362366,29527811,3545
6.167698108,29578784,3986
6.17249588,29629311,4072
6.177419758,29678252,4712
6.182372814,29729448,2939
6.187394813,29779445,3980
6.192705962,29830067,4077
6.197678918,29879894,3747
6.202432087,29930743,3841
6.2075114,29981362,3760
6.213173501,30029714,3500
6.21753437,30080469,3818
6.222480907,30130977,3813
6.227512266,30181496,2736
6.23272219,30231043,3482
6.237493268,30279782,4019
6.242602534,30330166,3543
6.247390522,30380170,2670
6.2525222750000005,30429784,4328
6.2574664460000005,30479615,3347
6.262504437,30530511,3710
6.267526745,30579932,2990
6.272559634,30630155,4483
6.277607284,30679193,3479
6.282478463,30729261,3952
6.287850443,30779271,4138
6.292710901,30827153,4137
6.297485216,30853336,4080
6.302692353,30692765,3855
6.307499278,30851547,3773
6.312563399,30982335,3104
6.317428663,31060254,3954
6.322710664,31120208,3788
6.327607598,31173211,4034
6.332616642,31225561,4005
6.337519515,31276030,4329
6.342464771,31326184,3441
6.347632335,31377230,3636
6.352428502,31428490,3602
6.357641241,31478242,4114
6.362397147,31528699,4454
6.367700105,31578699,4075
6.372532999,31629140,3850
6.377472335,31679676,4083
6.382766806,31729029,3616
6.387648142,31779626,3893
6.392497944,31830061,4761
6.397655844,31881056,3662
6.402602434,31930480,3524
6.407485568,31980306,4547
6.412641298,32030537,3623
6.417404108,32079955,3833
6.422729773,32130028,3916
6.427528669,32180256,4431
6.432775561,32229753,3444
6.43745042,32280448,3822
6.44243925,32329322,4095
6.44761012,32380424,3354
6.452627895,32429835,3872
6.457460255,32479688,4958
6.462498742,32529604,4453
6.467460363,32579213,5157
6.472519026,32628638,3568
6.477553059,32679525,4948
6.482732636,32727105,3354
6.48744007,32750291,3461
6.492618007,32590088,4242
6.497563788,32759139,4302
6.502472658,32885287,2221
6.507561459,32961963,3400
6.512397048,33020274,3788
6.517497115,33073946,3859
6.522685748,33125000,2704
6.527572769,33176291,3772
6.532633741,33225909,4490
6.53746601,33277076,3948
6.542502014,33328191,4254
6.547662661,33378734,4299
6.552713367,33429266,5071
6.557419781,33478654,4020
6.562477416,33529840,3229
6.567683619,33579369,3215
6.57248785,33629392,3475
6.577689475,33679660,3890
6.582641602,33730401,2885
6.58739384,33780800,3715
6.592361693,33830016,2862
6.597534479,33880449,3199
6.602651448,33931408,4725
6.607449662,33980765,4206
6.612438028,34030062,2381
6.617517964,34081799,4345
6.622476641,34130315,2442
6.627584543,34180846,3300
6.632613929,34230301,3514
6.6375000360000005,34280505,4127
6.642480139,34330682,4371
6.647683263,34379806,4624
6.652496292,34429769,4478
6.657459757,34479524,4123
6.662661677,34529500,4248
6.667657163,34579261,3901
6.67252651,34627321,4257
6.677679964,34659788,4143
6.682676863,34526320,3488
6.687437473,34631894,3942
6.69235762,34773230,3648
6.6977181649999995,34859388,573
6.702414937,34919753,2712
6.7076098779999995,34973577,2983
6.712798078,35024810,3425
6.717655708,35075091,3965
6.722543609,35126786,4393
6.727703629,35177886,4691
6.732691365,35228315,4821
6.7374878,35278423,4111
6.742662231,35328878,4347
6.747502217,35379340,5000
6.752672049,35430489,4384
6.757686116,35479367,5913
6.762676482,35529569,3747
6.767625236,35579880,4879
6.772528594,35629214,4794
6.777597569,35680702,4375
6.782641793,35730302,3288
6.787503644,35781065,5118
6.7924967689999995,35830272,3899
6.7977496649999996,35880437,3421
6.802448623,35930735,3846
6.8074696580000005,35980628,3939
6.81251861,36029824,3800
6.817425002,36080945,3228
6.822646999,36129920,4366
6.827506304,36179132,4296
6.832709179,36230722,4864
6.837663945,36279336,5023
6.842497996,36329841,4993
6.847531728,36380085,3856
6.852758071,36428457,3648
6.8575281839999995,36477640,4927
6.862660765,36527123,4407
6.867445493,36566471,4215
6.8725142120000005,36535295,3844
6.877639608,36505768,4498
6.882660312,36663262,4536
6.887542099,36754276,3819
6.892699423,36817999,3687
6.897546267,36872321,4381
6.902692686,36924550,3367
6.90755094,36975676,4041
6.912488396,37025043,3663
6.917676606,37076408,4843
6.922494962,37127246,4384
6.927515898,37178662,4815
6.932484784,37228836,4044
6.937710696,37278943,4429
6.942564892,37329411,3677
6.947742722,37379794,4154
6.952481257,37428700,3958
6.957596137,37479526,4448
6.9626726439999995,37529443,3454
6.967514527,37579973,3993
6.972492138,37629543,2542
6.977542818,37680198,3573
6.982461647,37729690,4110
